DOS Spectrum		MO eigenvalues
Energy (eV)
-20.0	0.0	-521.533667441	-1
-19.98	0.0	-521.468904346	-1
-19.96	0.0	-521.452577515	-1
-19.94	0.0	-521.420195967	-1
-19.92	0.0	-521.40196434	-1
-19.9	0.0	-521.324684008	-1
-19.88	0.0	-279.87317129	-1
-19.86	0.0	-278.776008267	-1
-19.84	1.88551465292e-10	-278.726483547	-1
-19.82	5.33055805902e-10	-278.692741431	-1
-19.8	1.47027566957e-09	-278.692469317	-1
-19.78	3.95640625699e-09	-278.369470183	-1
-19.76	1.03867169115e-08	-29.486528358	-1
-19.74	2.66030203492e-08	-28.4633803008	-1
-19.72	6.64750737445e-08	-28.1520820622	-1
-19.7	1.62054814449e-07	-28.0829651455	-1
-19.68	3.85425351331e-07	-27.9888137552	-1
-19.66	8.94321856952e-07	-27.5743843692	-1
-19.64	2.02452265852e-06	-21.275765199	-1
-19.62	4.47122646869e-06	-20.8760299607	-1
-19.6	9.63398403377e-06	-18.9872877626	-1
-19.58	2.02516496624e-05	-17.8095790414	-1
-19.56	4.15326955293e-05	-17.4079390062	-1
-19.54	8.3098858822e-05	-15.9447828616	-1
-19.52	0.00016220910576	-15.0495283116	-1
-19.5	0.0003089090482	-14.6764602301	-1
-19.48	0.000573933080553	-14.0269244821	-1
-19.46	0.00104032039939	-13.7852873877	-1
-19.44	0.00183970505012	-13.6203863976	-1
-19.42	0.00317398240867	-13.2375222177	-1
-19.4	0.0053423957868	-12.9224143852	-1
-19.38	0.00877289298934	-12.4696169471	-1
-19.36	0.0140548052935	-12.0557317889	-1
-19.34	0.0219675722819	-11.8696059189	-1
-19.32	0.0334976641137	-11.4704149083	-1
-19.3	0.0498335942575	-10.9830590119	-1
-19.28	0.0723277789839	-10.5569287306	-1
-19.26	0.102414930665	-10.2336574828	-1
-19.24	0.141480520992	-10.1063082033	-1
-19.22	0.190680048801	-9.98031949307	-1
-19.2	0.25072006246	-9.51500481811	-1
-19.18	0.321623778005	-8.9713213558	-1
-19.16	0.402515343466	-8.81621646415	-1
-19.14	0.491464281198	-8.46110789643	-1
-19.12	0.585432337782	-8.02246037829	-1
-19.1	0.680356730648	-7.89810435113	-1
-19.08	0.771386247591	-7.7636801117	-1
-19.06	0.853261847619	-7.06489175774	-1
-19.04	0.920805683885	0.170071153125	-1
-19.02	0.969457744897	0.21442570986	-1
-19.0	0.995783685154	0.495519311745	-1
-18.98	0.997875494476	0.628855095795	-1
-18.96	0.975580109861	1.06695838625	-1
-18.94	0.930517930409	1.16274245969	-1
-18.92	0.865888125186	1.31839157903	-1
-18.9	0.786093219649	1.44274760619	-1
-18.88	0.696244128633	1.69037120514	-1
-18.86	0.601622777366	2.2585449135	-1
-18.84	0.507180121672	2.35432898694	-1
-18.82	0.417133823036	2.57827868138	-1
-18.8	0.334706246034	2.6261707181	-1
-18.78	0.26201578561	2.73882584992	-1
-18.76	0.200108863721	3.03733473789	-1
-18.74	0.149100954537	3.13883320207	-1
-18.72	0.108385141917	3.38019818259	-1
-18.7	0.0768660043954	3.54482705882	-1
-18.68	0.0531831542608	3.65149568606	-1
-18.66	0.0358995584624	3.90047985423	-1
-18.64	0.0236417357339	4.04197905363	-1
-18.62	0.0151895486128	4.16007646236	-1
-18.6	0.00952106942945	4.22892126514	-1
-18.58	0.00582240432967	4.53967527614	-1
-18.56	0.0034737336135	4.80199302272	-1
-18.54	0.00202197455943	4.89995400692	-1
-18.52	0.00114834389721	4.96988726508	-1
-18.5	0.000636535168223	5.13261134439	-1
-18.48	0.00034483519679	5.29669599292	-1
-18.46	0.000183618135292	5.58023861942	-1
-18.44	9.83821956163e-05	5.60472886546	-1
-18.42	5.77882329129e-05	5.76201066787	-1
-18.4	4.58999276207e-05	5.78786148315	-1
-18.38	5.78744318095e-05	6.0246005283	-1
-18.36	9.85893771346e-05	6.2477338812	-1
-18.34	0.000184025611034	6.46869032334	-1
-18.32	0.000345587546426	6.53726301228	-1
-18.3	0.000637876270834	6.70542936849	-1
-18.28	0.00115066711367	6.90706572764	-1
-18.26	0.0020258916433	6.96257695201	-1
-18.24	0.00348016334174	7.06679655465	-1
-18.22	0.00583267849405	7.21537071402	-1
-18.2	0.00953704843136	7.29482795676	-1
-18.18	0.0152137316195	7.38653032253	-1
-18.16	0.023677342134	7.56966294021	-1
-18.14	0.0359505502758	7.70027758581	-1
-18.12	0.0532541666598	7.85102865594	-1
-18.1	0.0769621584907	8.07198509808	-1
-18.08	0.108511736714	8.19824592216	-1
-18.06	0.149263080923	8.27198877416	-1
-18.04	0.200311061165	8.41566488431	-1
-18.02	0.26226198219	8.653220271	-1
-18.0	0.335000397727	8.86220370396	-1
-17.98	0.417481916473	8.91281687913	-1
-17.96	0.507594549031	9.0257441248	-1
-17.94	0.602130559895	9.14819535505	-1
-17.92	0.696901080025	9.38928822173	-1
-17.9	0.787006906169	9.49024245822	-1
-17.88	0.867253352537	9.71582483572	-1
-17.86	0.932669340744	9.84453468441	-1
-17.84	0.979067055822	10.0581440527	-1
-17.82	1.00356427216	10.2801889503	-1
-17.8	1.004990917	10.4061776605	-1
-17.78	0.984115600155	10.6570666256	-1
-17.76	0.943654181547	11.0097261687	-1
-17.74	0.888055486069	11.1452388635	-1
-17.72	0.823092010844	11.767563227	-1
-17.7	0.755309333876	11.8236186791	-1
-17.68	0.691402553857	12.1319236655	-1
-17.66	0.637590328531	12.2783209141	-1
-17.64	0.599048981411	13.1003768398	-1
-17.62	0.579454888808	13.2236444116	-1
-17.6	0.580667580785	15.6781112935	-1
-17.58	0.602572152584	15.7436907302	-1
-17.56	0.64308894857	16.0193420552	-1
-17.54	0.698350055207	16.2095496328	-1
-17.52	0.763033565965	16.7317361014	-1
-17.5	0.830835590912	16.823710581	-1
-17.48	0.895045813143	17.2003161424	-1
-17.46	0.949176579886	17.5480776364	-1
-17.44	0.987581723656	18.1148907755	-1
-17.42	1.0059942141	18.6381656994	-1
-17.4	1.00191535327	18.9758589811	-1
-17.38	0.974804263999	19.5013108158	-1
-17.36	0.926043352515	19.6507013167	-1
-17.34	0.858688556679	20.2773795017	-1
-17.32	0.777045803263	20.5353434268	-1
-17.3	0.686140272568	20.6406514848	-1
-17.28	0.591157601463	21.4681496874	-1
-17.26	0.496933928295	22.344900496	-1
-17.24	0.407556097658	22.5098014861	-1
-17.22	0.326108732306	23.0039602286	-1
-17.2	0.254577154848	23.2910403351	-1
-17.18	0.193890157652	23.7479194808	-1
-17.16	0.144068763869	24.1808526082	-1
-17.14	0.104438505714	24.355005469	-1
-17.12	0.0738631163087	24.7620877812	-1
-17.1	0.0509648087668	24.9033148667	-1
-17.08	0.0343074741664	25.1457683026	-1
-17.06	0.0225311070011	25.3797862093	-1
-17.04	0.0144361595098	25.633124199	-1
-17.02	0.00902393837902	25.7713580323	-1
-17.0	0.00550320696901	25.8924486933	-1
-16.98	0.00327424241173	26.0407507388	-1
-16.96	0.00190055770177	26.2685100271	-1
-16.94	0.00107628312	26.5977677795	-1
-16.92	0.000594630572146	27.146349291	-1
-16.9	0.000320511172427	27.2826783274	-1
-16.88	0.000168544407673	27.5430912771	-1
-16.86	8.64690679734e-05	27.6867673872	-1
-16.84	4.32795360379e-05	28.30337736	-1
-16.82	2.11339465729e-05	28.6767175553	-1
-16.8	1.00683819657e-05	28.9695120525	-1
-16.78	4.68003916211e-06	29.3474781833	-1
-16.76	2.1233921745e-06	29.7355125262	-1
-16.74	9.42744714855e-07	29.8810934333	-1
-16.72	4.1578380937e-07	30.3932116896	-1
-16.7	1.97859586401e-07	30.5866846334	-1
-16.68	1.3818366692e-07	30.6911763499	-1
-16.66	1.94011058379e-07	31.052543536	-1
-16.64	4.05353424109e-07	31.3526851071	-1
-16.62	9.18664061296e-07	31.4465643836	-1
-16.6	2.07033022125e-06	31.8528303542	-1
-16.58	4.56648533241e-06	31.9581384122	-1
-16.56	9.8316874113e-06	32.4267184533	-1
-16.54	2.0653176787e-05	32.9167954881	-1
-16.52	4.23279342418e-05	33.143466321	-1
-16.5	8.46337396269e-05	33.2253725883	-1
-16.48	0.000165095556482	33.450682852	-1
-16.46	0.000314197333011	33.5347660301	-1
-16.44	0.000583371002058	33.7206197862	-1
-16.42	0.00105672604256	34.1644374674	-1
-16.4	0.00186747678856	34.4694770877	-1
-16.38	0.00321975809276	34.8406403723	-1
-16.36	0.00541584845209	34.9701665625	-1
-16.34	0.00888761006324	35.4790194526	-1
-16.32	0.0142291418768	35.9007959124	-1
-16.3	0.0222253012487	35.9516812014	-1
-16.28	0.0338681778524	36.6945519983	-1
-16.26	0.0503513635572	37.0428577198	-1
-16.24	0.0730307682775	37.1119746365	-1
-16.22	0.103341730953	37.7084481847	-1
-16.2	0.142666110988	37.9500852791	-1
-16.18	0.192150333587	38.1873685519	-1
-16.16	0.252485645142	38.6140430609	-1
-16.14	0.323673742619	39.2603134428	-1
-16.12	0.404812091672	39.3267092209	-1
-16.1	0.493940585282	40.1931197034	-1
-16.08	0.587991674155	40.4241443578	-1
-16.06	0.682877604764	40.6821082829	-1
-16.04	0.773730634829	41.5735532391	-1
-16.02	0.855287143452	41.8372315549	-1
-16.0	0.922378824438	42.0764196247	-1
-15.98	0.970469594553	42.4402358354	-1
-15.96	0.996161542002	43.0573900359	-1
-15.94	0.997591725504	43.2451485889	-1
-15.92	0.974655491656	43.3188914409	-1
-15.9	0.929019134513	43.6451559411	-1
-15.88	0.863919770838	43.973597352	-1
-15.86	0.78378580957	44.6876240813	-1
-15.84	0.693739798878	44.883001822	-1
-15.82	0.599061013988	45.8582578425	-1
-15.8	0.504685406651	45.9635659005	-1
-15.78	0.41480664663	46.3467021942	-1
-15.76	0.332618207813	46.9450805394	-1
-15.74	0.260208772831	47.4068577344	-1
-15.72	0.198597696485	48.6071519047	-1
-15.7	0.147878525497	48.906749248	-1
-15.68	0.107428995136	49.0531464966	-1
-15.66	0.0761454788032	49.326348797	-1
-15.64	0.0526666136445	49.6983284231	-1
-15.62	0.0355617856591	50.3089518913	-1
-15.6	0.0234722412069	50.3484083988	-1
-15.58	0.0152033135851	51.0997147249	-1
-15.56	0.00977410877007	52.0844947299	-1
-15.54	0.0064354848588	52.6344368107	-1
-15.52	0.00466856502987	52.9827425323	-1
-15.5	0.00417505827594	53.7073817015	-1
-15.48	0.00486814377169	54.108477509	-1
-15.46	0.00686929582654	54.8595117212	-1
-15.44	0.0105126613138	55.2453691534	-1
-15.42	0.016354741996	55.6178930072	-1
-15.4	0.0251834102331	56.1310997189	-1
-15.38	0.0380170139222	57.3803743813	-1
-15.36	0.0560820172925	58.1910015256	-1
-15.34	0.0807570034729	59.3902072405	-1
-15.32	0.113472755579	60.0889955944	-1
-15.3	0.155563206602	61.2996300908	-1
-15.28	0.208070483646	61.5529680805	-1
-15.26	0.271518421382	62.3110772527	-1
-15.24	0.345681112552	62.8996594994	-1
-15.22	0.429383683521	63.4710985739	-1
-15.2	0.520378397572	63.7546412004	-1
-15.18	0.615337507246	66.2112849931	-1
-15.16	0.709993278155	66.948713513	-1
-15.14	0.799435561557	67.8660092845	-1
-15.12	0.878550871169	68.0760811729	-1
-15.1	0.942558939148	68.3579911163	-1
-15.08	0.987579192755	68.9419474277	-1
-15.06	1.01114622353	69.4371946256	-1
-15.04	1.0125939595	69.8475423038	-1
-15.02	0.99324368784	70.1591126564	-1
-15.0	0.956358686279	70.4780300827	-1
-14.98	0.906862592485	70.593406353	-1
-14.96	0.850853016088	71.3770942266	-1
-14.94	0.794969967418	71.6037650595	-1
-14.92	0.745696128616	72.4865023726	-1
-14.9	0.708671315987	72.9934504659	-1
-14.88	0.688097824156	73.9542844526	-1
-14.86	0.686299565846	74.3374207463	-1
-14.84	0.703479316369	76.163848874	-1
-14.82	0.737697571044	76.5352842724	-1
-14.8	0.785075032635	76.8873995878	-1
-14.78	0.840199212692	77.0944782239	-1
-14.76	0.896694620694	78.0585775767	-1
-14.74	0.947896833606	78.4901501349	-1
-14.72	0.987555820962	78.7002220232	-1
-14.7	1.01048648379	79.2243132887	-1
-14.68	1.01308749416	80.210453863	-1
-14.66	0.993664756166	80.9639370998	-1
-14.64	0.952522179638	81.1239400406	-1
-14.62	0.891816149276	81.9212336065	-1
-14.6	0.815205054433	82.222191519	-1
-14.58	0.727354714919	82.6619274926	-1
-14.56	0.6333787045	83.0807107	-1
-14.54	0.53829620355	83.2311896563	-1
-14.52	0.446579224952	83.4600373999	-1
-14.5	0.361839136698	83.7514713279	-1
-14.48	0.286674737752	84.4396472419	-1
-14.46	0.222676675851	84.6189702658	-1
-14.44	0.170560714166	85.017072821	-1
-14.42	0.13038824572	85.7555897964	-1
-14.4	0.101827183224	86.6464905249	-1
-14.38	0.0844086300971	87.285413833	-1
-14.36	0.077742169922	87.8759008766	-1
-14.34	0.0816626620057	88.2481526166	-1
-14.32	0.0962921971145	89.397289384	-1
-14.3	0.122011433771	90.0182531783	-1
-14.28	0.159344853974	90.5679231452	-1
-14.26	0.20877487696	91.6212758392	-1
-14.24	0.270510305084	91.7279444664	-1
-14.22	0.344244479541	92.079787668	-1
-14.2	0.428945999089	92.7064658531	-1
-14.18	0.522727351557	93.3358651765	-1
-14.16	0.62283176281	93.9252637648	-1
-14.14	0.725764434024	94.3456796553	-1
-14.12	0.827571571239	94.8880025484	-1
-14.1	0.924242235584	96.3092531609	-1
-14.08	1.01217948072	96.4904809816	-1
-14.06	1.08866529314	97.4608389529	-1
-14.04	1.1522349715	98.2325538173	-1
-14.02	1.20288493668	98.606982468	-1
-14.0	1.24206382427	99.8606109519	-1
-13.98	1.27243579747	100.218168544	-1
-13.96	1.29744914994	100.89654836	-1
-13.94	1.320782258	101.062537805	-1
-13.92	1.34576328202	102.883251542	-1
-13.9	1.37486358105	103.286252147	-1
-13.88	1.40934671669	104.346135573	-1
-13.86	1.4491199568	105.213906625	-1
-13.84	1.49279250828	106.005213686	-1
-13.82	1.53790524838	107.130948663	-1
-13.8	1.58127004219	108.567709764	-1
-13.78	1.61934826665	109.339968856	-1
-13.76	1.64860780282	109.699431246	-1
-13.74	1.66582018783	110.945712656	-1
-13.72	1.66828626517	112.442338803	-1
-13.7	1.65400063615	113.242897735	-1
-13.68	1.62177613484	113.456779217	-1
-13.66	1.57134746871	113.832568437	-1
-13.64	1.50346080151	114.798300473	-1
-13.62	1.41993945303	115.505524356	-1
-13.6	1.32370207386	116.053833754	-1
-13.58	1.21870412695	116.400778906	-1
-13.56	1.10977854617	116.919700009	-1
-13.54	1.00236567359	117.494404449	-1
-13.52	0.902141885272	117.523792745	-1
-13.5	0.814575548975	117.98774685	-1
-13.48	0.7444537167	118.518096734	-1
-13.46	0.695430766576	119.093345403	-1
-13.44	0.669650743567	119.402738844	-1
-13.42	0.66748958491	119.43430405	-1
-13.4	0.687453390429	119.776351154	-1
-13.38	0.726255613666	120.319490388	-1
-13.36	0.779079971367	120.580175452	-1
-13.34	0.840017096209	120.894466943	-1
-13.32	0.902642033069	121.80795312	-1
-13.3	0.960678355274	122.163061688	-1
-13.28	1.00867618258	122.717085477	-1
-13.26	1.04261994087	123.361178948	-1
-13.24	1.06038139803	123.764995894	-1
-13.22	1.06194688288	123.88010005	-1
-13.2	1.04937450297	124.189493492	-1
-13.18	1.0264743675	124.945425753	-1
-13.16	0.998246386041	125.272234481	-1
-13.14	0.970148829183	125.430876853	-1
-13.12	0.947299379886	125.78734599	-1
-13.1	0.933723484537	126.156332364	-1
-13.08	0.931759832691	126.614844192	-1
-13.06	0.941710349901	127.026008212	-1
-13.04	0.961785735042	127.378395641	-1
-13.02	0.98835312944	127.653774853	-1
-13.0	1.01644707562	127.787926978	-1
-12.98	1.04046580778	128.132967334	-1
-12.96	1.05494848402	128.402904268	-1
-12.94	1.05531959919	128.913934069	-1
-12.92	1.03849602565	129.459250214	-1
-12.9	1.00327810548	129.673948038	-1
-12.88	0.950483960577	130.030417175	-1
-12.86	0.88282835885	130.802132039	-1
-12.84	0.804585905892	130.900365137	-1
-12.82	0.721105846629	130.985808885	-1
-12.8	0.638257867224	131.213296059	-1
-12.78	0.56188422714	131.607044793	-1
-12.76	0.497316384995	132.181749233	-1
-12.74	0.448989948051	132.502299343	-1
-12.72	0.420167383812	133.241088432	-1
-12.7	0.412759782493	133.558645289	-1
-12.68	0.427230849798	133.818241897	-1
-12.66	0.46256861133	134.475396833	-1
-12.64	0.516320048951	134.665332297	-1
-12.62	0.584695791229	135.863449556	-1
-12.6	0.662760170178	136.104542423	-1
-12.58	0.744721823297	136.596252141	-1
-12.56	0.824329708566	138.564451582	-1
-12.54	0.895360494932	138.94296194	-1
-12.52	0.952160466792	140.887215363	-1
-12.5	0.990184795058	141.844511869	-1
-12.48	1.00646561348	142.343024433	-1
-12.46	0.999942071026	142.87283009	-1
-12.44	0.971601255426	142.980587172	-1
-12.42	0.924405670275	143.700056178	-1
-12.4	0.863014893978	144.628508618	-1
-12.38	0.793338990388	145.268248267	-1
-12.36	0.721982828927	145.444033811	-1
-12.34	0.655649934948	145.622268379	-1
-12.32	0.600571514296	146.300648195	-1
-12.3	0.562013759685	146.683240261	-1
-12.28	0.543899258241	147.140391521	-1
-12.26	0.548561227623	147.55999107	-1
-12.24	0.576635846233	148.070748757	-1
-12.22	0.627089096361	148.207077793	-1
-12.2	0.697368937939	148.623139862	-1
-12.18	0.783668595466	148.851715492	-1
-12.16	0.881279841189	149.402473914	-1
-12.14	0.985005648155	149.766290125	-1
-12.12	1.08959111604	150.114323733	-1
-12.1	1.19012382634	151.164411061	-1
-12.08	1.28235412928	151.752993307	-1
-12.06	1.36289547239	152.7630799	-1
-12.04	1.4292850403	153.184584246	-1
-12.02	1.4799123268	153.965823095	-1
-12.0	1.51385134349	154.293720278	-1
-11.98	1.53065322951	155.439591679	-1
-11.96	1.53016351018	157.062478651	-1
-11.94	1.5124191198	157.513643406	-1
-11.92	1.47765629255	158.83094653	-1
-11.9	1.42642775659	160.095187453	-1
-11.88	1.35979522092	160.55070603	-1
-11.86	1.27953973822	160.810846866	-1
-11.84	1.18832421234	161.407864642	-1
-11.82	1.08975065559	162.089509823	-1
-11.8	0.98827665508	162.416862779	-1
-11.78	0.888984371117	162.902585992	-1
-11.76	0.797223673477	163.492528808	-1
-11.74	0.718172438478	163.800017453	-1
-11.72	0.656368255831	164.521391256	-1
-11.7	0.615266882185	165.120313829	-1
-11.68	0.596876345049	165.467531095	-1
-11.66	0.601505249777	166.333125236	-1
-11.64	0.627652526703	166.834358939	-1
-11.62	0.67205484754	167.397906712	-1
-11.6	0.72989676555	168.777523906	-1
-11.58	0.79517590958	170.013737104	-1
-11.56	0.861200302349	170.754975217	-1
-11.54	0.921177647958	177.731429976	-1
-11.52	0.968839829964	190.834527954	-1
-11.5	0.999033995981	192.426121833	-1
-11.48	1.00820881733	193.791316994	-1
-11.46	0.994733717082	195.194063865	-1
-11.44	0.959010185581	198.054524603	-1
-11.42	0.903364567371	198.499702854	-1
-11.4	0.831744973892	206.704479508	-1
-11.38	0.749274077118	215.338107582	-1
-11.36	0.66172802989	325.195364858	-1
-11.34	0.575015747746	331.123909199	-1
-11.32	0.494722007298	340.441903593	-1
-11.3	0.425755651912	350.02684167	-1
-11.28	0.372116692625	352.238038774	-1
-11.26	0.336770287765	359.671100564	-1
-11.24	0.321597659001	362.372374703	-1
-11.22	0.327387753745	365.765362237	-1
-11.2	0.353839471872	368.77548559	-1
-11.18	0.399559887412	371.578258194	-1
-11.16	0.462064000569	373.909729618	-1
-11.14	0.537799905531	384.492509163	-1
-11.12	0.622234052593
-11.1	0.710030643332
-11.08	0.795346230184
-11.06	0.872237741951
-11.04	0.935154734219
-11.02	0.979461582775
-11.0	1.00191934086
-10.98	1.00105479414
-10.96	0.977357202289
-10.94	0.933268775791
-10.92	0.872967324131
-10.9	0.801971298242
-10.88	0.726621642578
-10.86	0.653506847812
-10.84	0.588896286596
-10.82	0.538234867032
-10.8	0.505734351982
-10.78	0.494079217765
-10.76	0.504252324941
-10.74	0.535479983106
-10.72	0.585296146145
-10.7	0.649727923574
-10.68	0.723604774465
-10.66	0.800987909203
-10.64	0.875703165668
-10.62	0.941941662563
-10.6	0.994872368561
-10.58	1.03119536952
-10.56	1.04955972322
-10.54	1.05077884581
-10.52	1.03779948896
-10.5	1.01541407443
-10.48	0.989744238233
-10.46	0.967558507107
-10.44	0.955512329982
-10.42	0.959409617101
-10.4	0.983579906705
-10.38	1.03044576174
-10.36	1.10032494392
-10.34	1.19147675325
-10.32	1.30036750149
-10.3	1.42210171114
-10.28	1.55094732056
-10.26	1.68087718698
-10.24	1.80605573529
-10.22	1.9212169005
-10.2	2.02190401899
-10.18	2.10456936241
-10.16	2.16655559731
-10.14	2.20599923305
-10.12	2.22170417748
-10.1	2.21303092983
-10.08	2.179834902
-10.06	2.12246891652
-10.04	2.04184432532
-10.02	1.93952701336
-10.0	1.81783277577
-9.98	1.67988372099
-9.96	1.52959395759
-9.94	1.37156716937
-9.92	1.21090720613
-9.9	1.0529609057
-9.88	0.903025521442
-9.86	0.766058170065
-9.84	0.646420664557
-9.82	0.547681503409
-9.8	0.472481319833
-9.78	0.422453502785
-9.76	0.39818243413
-9.74	0.399180657243
-9.72	0.42387359169
-9.7	0.469593725562
-9.68	0.532601048068
-9.66	0.60815748388
-9.64	0.690685634445
-9.62	0.774033775135
-9.6	0.851850454914
-9.58	0.918047032082
-9.56	0.967301225924
-9.54	0.995536179596
-9.52	1.00030333715
-9.5	0.981006471585
-9.48	0.938927457241
-9.46	0.87704713794
-9.44	0.799689655391
-9.42	0.712048007226
-9.4	0.619665985508
-9.38	0.527953632386
-9.36	0.441800305643
-9.34	0.365325129359
-9.32	0.301774970002
-9.3	0.253551675247
-9.28	0.222328749797
-9.26	0.209206508003
-9.24	0.214855155647
-9.22	0.239605995536
-9.2	0.283469006474
-9.18	0.346076319036
-9.16	0.42657118952
-9.14	0.523476935542
-9.12	0.634586976281
-9.1	0.756914271221
-9.08	0.886726728171
-9.06	1.01967724907
-9.04	1.15101729192
-9.02	1.27586608116
-9.0	1.3894981659
-8.98	1.48761221851
-8.96	1.56655330779
-8.94	1.6234761051
-8.92	1.65645247142
-8.9	1.66453830742
-8.88	1.64781770163
-8.86	1.60743646546
-8.84	1.54562450146
-8.82	1.46569191848
-8.8	1.37197293529
-8.78	1.26968881989
-8.76	1.16470826119
-8.74	1.06319949424
-8.72	0.971189539661
-8.7	0.894067172194
-8.68	0.836083001305
-8.66	0.799908926639
-8.64	0.786318603562
-8.62	0.794040485154
-8.6	0.819816823007
-8.58	0.858677881255
-8.56	0.904413340271
